,Temp,Enthalpy,Step
0,49.88361,-4.9561440887919925,0.0
1,50.68275,-4.955995441482509,5000.0
2,51.23257,-4.955812109800813,10000.0
3,51.97237,-4.955638687939748,15000.0
4,52.45466,-4.955480130809632,20000.0
5,53.06059,-4.955356258051729,25000.0
6,53.80163,-4.95513824199782,30000.0
7,54.55585,-4.954994549598652,35000.0
8,54.88988,-4.954842929342979,40000.0
9,55.33962,-4.9547002279258745,45000.0
10,56.1616,-4.954504013477356,50000.0
11,57.00358,-4.954338519472797,55000.0
12,57.4115,-4.954211673768705,60000.0
13,58.06282,-4.954085819046675,65000.0
14,58.58771,-4.9538856406699034,70000.0
15,59.3236,-4.953698345059954,75000.0
16,59.87347,-4.953557130115945,80000.0
17,60.41047,-4.953398572985829,85000.0
18,61.28179,-4.953241502328807,90000.0
19,61.81516,-4.953070557922901,95000.0
20,62.32934,-4.952892181151521,100000.0
21,63.20552,-4.952708849469825,105000.0
22,63.90447,-4.952549796848677,110000.0
23,64.38001,-4.952394708155783,115000.0
24,65.02199,-4.95225250222971,120000.0
25,65.59406,-4.952090476662373,125000.0
26,66.23862,-4.951919036765434,130000.0
27,66.85258,-4.951750074323654,135000.0
28,67.57315,-4.951615796254088,140000.0
29,68.20676,-4.951422059260727,145000.0
30,68.76471,-4.951248637399663,150000.0
31,69.54188,-4.951104945000496,155000.0
32,69.91678,-4.95097710831434,160000.0
33,70.6787,-4.9507972450698645,165000.0
34,71.47819,-4.950610940441978,170000.0
35,71.91048,-4.950459815677337,175000.0
36,72.60442,-4.950289862253493,180000.0
37,73.30867,-4.950158557130116,185000.0
38,73.67095,-4.950004459419285,190000.0
39,74.39145,-4.949853334654643,195000.0
40,75.31418,-4.9496501833316815,200000.0
41,75.73036,-4.949505499950451,205000.0
42,76.24235,-4.949366762461599,210000.0
43,76.93929,-4.949204736894262,215000.0
44,77.53175,-4.949070954315727,220000.0
45,77.94481,-4.948901000891883,225000.0
46,78.71619,-4.9487469031810525,230000.0
47,79.51047,-4.948543751858091,235000.0
48,79.90743,-4.948418392627094,240000.0
49,80.64316,-4.948220196214448,245000.0
50,81.30371,-4.948096818947577,250000.0
51,82.06223,-4.947904568427312,255000.0
52,82.68288,-4.947755425626796,260000.0
53,83.34448,-4.947595877514617,265000.0
54,83.61027,-4.947501238727579,270000.0
55,84.21852,-4.947349618471906,275000.0
56,84.95805,-4.9471752056287785,280000.0
57,85.56753,-4.947024080864137,285000.0
58,86.28271,-4.946854622931324,290000.0
59,86.81384,-4.946756515707066,295000.0
60,87.31622,-4.946621246655435,300000.0
61,88.21936,-4.946427509662075,305000.0
62,88.83154,-4.946287285700128,310000.0
63,89.36132,-4.946127242096918,315000.0
64,90.14875,-4.945937964522842,320000.0
65,90.71343,-4.94584828064612,325000.0
66,91.44355,-4.945606481022693,330000.0
67,91.73855,-4.945546526607868,335000.0
68,92.42121,-4.945394410861163,340000.0
69,93.2883,-4.94516004360321,345000.0
70,93.45192,-4.9451159449013975,350000.0
71,94.40674,-4.94493558616589,355000.0
72,94.92407,-4.944782974928153,360000.0
73,95.69604,-4.94458527400654,365000.0
74,96.20217,-4.944478743434743,370000.0
75,96.76574,-4.94431176295709,375000.0
76,97.53847,-4.944167575066891,380000.0
77,98.24118,-4.944054603111684,385000.0
78,98.76971,-4.94389059558022,390000.0
79,99.67597,-4.943733029432167,395000.0
80,100.038,-4.9436294718065605,400000.0
81,100.5299,-4.943456049945496,405000.0
82,101.0729,-4.943313348528392,410000.0
83,101.9286,-4.943185016351204,415000.0
84,103.0213,-4.942951144584283,420000.0
85,102.8606,-4.942941730254683,425000.0
86,103.8379,-4.942726191655931,430000.0
87,104.5683,-4.942580021801605,435000.0
88,104.8536,-4.9424878604697255,440000.0
89,105.6234,-4.942310474680408,445000.0
90,106.117,-4.942166286790209,450000.0
91,106.7096,-4.941978991180259,455000.0
92,107.2807,-4.941893271231791,460000.0
133,107.5739,-4.942375384005549,660000.0
134,107.5739,-4.942375384005549,660000.0
135,107.8285,-4.942327816866515,665000.0
136,108.4568,-4.942159845406798,670000.0
137,109.278,-4.9419294420770985,675000.0
138,109.867,-4.941821425032207,680000.0
139,110.59,-4.941657912991775,685000.0
140,111.1221,-4.941538995144188,690000.0
141,111.7406,-4.941369041720344,695000.0
142,112.4559,-4.941163412942226,700000.0
143,113.3736,-4.940984045188782,705000.0
144,113.7324,-4.94088494698246,710000.0
145,114.5605,-4.940742245565355,715000.0
146,115.0624,-4.940542067188583,720000.0
147,115.5633,-4.9404018432266374,725000.0
148,116.4773,-4.940208106233277,730000.0
149,116.7545,-4.9400639183430775,735000.0
150,117.4074,-4.9399930631255575,740000.0
151,118.2469,-4.939735903280151,745000.0
152,119.0887,-4.93959766128233,750000.0
153,119.1433,-4.939492121692598,755000.0
154,120.1415,-4.939422752948172,760000.0
155,120.6401,-4.939145277970469,765000.0
156,121.1454,-4.939109107125161,770000.0
157,121.9364,-4.93890892874839,775000.0
158,122.3683,-4.938730056485977,780000.0
159,123.1324,-4.938583391140621,785000.0
160,123.6543,-4.9384451491428,790000.0
161,124.4174,-4.938285105539589,795000.0
162,124.7041,-4.938156773362403,800000.0
163,125.5562,-4.93802695471212,805000.0
164,126.6925,-4.937731642057279,810000.0
165,126.9583,-4.937666732732137,815000.0
166,127.5568,-4.937495788326231,820000.0
167,128.3336,-4.937330294321673,825000.0
168,128.6318,-4.937214844911307,830000.0
169,129.1259,-4.937143989693786,835000.0
170,130.2237,-4.9368635417698945,840000.0
171,130.674,-4.93676692101873,845000.0
172,131.3907,-4.936595481121792,850000.0
173,131.6582,-4.936508770191259,855000.0
174,132.5712,-4.936301159449014,860000.0
175,133.6313,-4.936088593796453,865000.0
176,133.6404,-4.936026657417501,870000.0
177,134.6525,-4.935844812208899,875000.0
178,135.4697,-4.935600535130314,880000.0
179,135.4865,-4.935575760578733,885000.0
180,136.375,-4.935375582201962,890000.0
181,137.0996,-4.935286393816272,895000.0
182,137.3606,-4.935191755029234,900000.0
183,138.4532,-4.934962838172629,905000.0
184,139.0141,-4.934826082647904,910000.0
185,139.1375,-4.934744822118719,915000.0
186,140.1586,-4.934533247448221,920000.0
187,140.6393,-4.93440392428897,925000.0
188,141.3038,-4.934232484392033,930000.0
189,141.7428,-4.934141314042216,935000.0
190,142.6044,-4.933968883163215,940000.0
191,143.2098,-4.933815776434447,945000.0
192,144.2502,-4.933577445248241,950000.0
193,144.5088,-4.933530373600238,955000.0
194,145.2545,-4.933360915667427,960000.0
195,145.5781,-4.9331557823803385,965000.0
196,146.2331,-4.933056684174017,970000.0
197,146.9152,-4.932869388564066,975000.0
198,147.7234,-4.9328287582994745,980000.0
199,148.2994,-4.932626597958577,985000.0
200,148.8224,-4.9324536715885445,990000.0
201,149.444,-4.932262412050342,995000.0
202,150.4409,-4.932092458626499,1000000.0
203,150.7109,-4.931972549796848,1005000.0
204,150.9142,-4.931937369933604,1010000.0
205,152.0076,-4.931661876920027,1015000.0
206,152.6818,-4.931573679516401,1020000.0
207,153.1466,-4.931416113368348,1025000.0
208,153.6723,-4.931271429987117,1030000.0
209,154.8239,-4.931067783173124,1035000.0
210,154.9796,-4.930933505103558,1040000.0
211,155.9307,-4.930715984540679,1045000.0
212,156.5425,-4.93057179665048,1050000.0
213,157.1014,-4.930435536616788,1055000.0
214,157.8672,-4.93025517788128,1060000.0
215,158.3002,-4.930128332177188,1065000.0
216,158.8317,-4.929996531562779,1070000.0
217,159.8119,-4.929735903280151,1075000.0
218,160.0227,-4.929672975919136,1080000.0
219,160.7745,-4.9295481121791696,1085000.0
220,161.0882,-4.929417302546824,1090000.0
221,162.0129,-4.9292993756813,1095000.0
222,162.4909,-4.929064017441284,1100000.0
223,163.0988,-4.928901496382916,1105000.0
224,163.6971,-4.92878307402636,1110000.0
225,165.3779,-4.9285665444455455,1115000.0
226,164.896,-4.928526409671985,1120000.0
267,164.8675,-4.929100188286592,1320000.0
268,164.8675,-4.929100188286592,1320000.0
269,165.9507,-4.928893073035378,1325000.0
270,166.161,-4.928876226340304,1330000.0
271,166.7375,-4.928631949261718,1335000.0
272,167.2018,-4.928486770389456,1340000.0
273,168.079,-4.928324744822119,1345000.0
274,168.3703,-4.928175602021604,1350000.0
275,169.6099,-4.927941730254682,1355000.0
276,169.5023,-4.927886235259142,1360000.0
277,170.9343,-4.927647904072936,1365000.0
278,170.6678,-4.927673174115548,1370000.0
279,171.2557,-4.92745218511545,1375000.0
280,172.5419,-4.927313447626598,1380000.0
281,172.9133,-4.9270265583192945,1385000.0
282,173.8291,-4.926934396987415,1390000.0
283,174.5035,-4.926816965612923,1395000.0
284,175.2434,-4.926602913487266,1400000.0
285,176.1435,-4.926373005648598,1405000.0
286,176.4937,-4.926234763650777,1410000.0
287,176.9783,-4.926114854821128,1415000.0
288,177.6749,-4.925976612823308,1420000.0
289,178.4711,-4.925760083242493,1425000.0
290,178.9695,-4.925713507085522,1430000.0
291,179.7921,-4.925485085719949,1435000.0
292,179.9129,-4.925491527103359,1440000.0
293,180.3075,-4.925324546625706,1445000.0
294,181.0206,-4.9251986919036765,1450000.0
295,181.7681,-4.924891487464077,1455000.0
296,182.7743,-4.924705678327222,1460000.0
297,183.4573,-4.924589237934793,1465000.0
298,183.7068,-4.924392032504212,1470000.0
299,183.786,-4.924387573084927,1475000.0
300,184.6526,-4.9243147359032795,1480000.0
301,185.3032,-4.924042215835893,1485000.0
302,185.9349,-4.923889604598157,1490000.0
303,186.7146,-4.923681002873848,1495000.0
304,187.5593,-4.9235556436428505,1500000.0
305,187.3108,-4.923503121593499,1505000.0
306,188.7454,-4.92323307898127,1510000.0
307,188.6079,-4.923192448716678,1515000.0
308,190.0465,-4.922941730254682,1520000.0
309,190.5566,-4.922740065404816,1525000.0
310,190.9313,-4.922692498265782,1530000.0
311,191.7129,-4.922500743236547,1535000.0
312,192.8561,-4.922258448122089,1540000.0
313,193.2225,-4.9222059260727375,1545000.0
314,193.5753,-4.921963630958279,1550000.0
315,194.5589,-4.921961648994153,1555000.0
316,195.3075,-4.9216564265186795,1560000.0
317,196.0619,-4.921587553265286,1565000.0
318,196.1368,-4.921399266673274,1570000.0
319,196.5603,-4.921291745119413,1575000.0
320,198.2218,-4.920926072738084,1580000.0
321,197.4484,-4.92100485581211,1585000.0
322,198.6683,-4.920753641859083,1590000.0
323,200.0546,-4.920615399861262,1595000.0
324,200.0286,-4.920439005054009,1600000.0
325,199.6794,-4.92048558121098,1605000.0
326,201.1829,-4.920201664849866,1610000.0
327,201.754,-4.920166484986622,1615000.0
328,202.8907,-4.919823109701714,1620000.0
329,203.992,-4.919632345654543,1625000.0
330,203.5776,-4.919626399762164,1630000.0
331,204.3048,-4.919390546031117,1635000.0
332,205.6261,-4.919151223862848,1640000.0
333,205.5268,-4.919229015954811,1645000.0
334,206.126,-4.919074422752948,1650000.0
335,206.3956,-4.918969378654246,1655000.0
336,207.2759,-4.918642354573382,1660000.0
337,208.0991,-4.918464968784065,1665000.0
338,209.2358,-4.91827915964721,1670000.0
339,209.6779,-4.918185016351204,1675000.0
340,209.9911,-4.91805470220989,1680000.0
341,210.352,-4.917951144584283,1685000.0
342,210.3914,-4.917857992270339,1690000.0
343,211.0845,-4.917580021801605,1695000.0
344,212.8077,-4.917453671588544,1700000.0
345,212.7212,-4.917375879496581,1705000.0
346,213.3558,-4.917204935090675,1710000.0
347,214.6221,-4.916866019225052,1715000.0
348,214.5431,-4.9169443068080465,1720000.0
349,216.1914,-4.916664849866217,1725000.0
350,216.1644,-4.916698543256367,1730000.0
351,217.2644,-4.9164339510454855,1735000.0
352,217.1163,-4.916277871370528,1740000.0
353,217.0845,-4.916242691507284,1745000.0
354,218.9612,-4.915942423942127,1750000.0
355,219.4028,-4.915844812208899,1755000.0
356,220.4669,-4.91553463482311,1760000.0
357,221.1604,-4.915492022594391,1765000.0
358,221.5469,-4.915275493013577,1770000.0
359,221.7393,-4.915244772569617,1775000.0
360,222.7949,-4.915013378257854,1780000.0
401,223.4222,-4.915463779605589,1980000.0
402,223.4222,-4.915463779605589,1980000.0
403,222.5692,-4.915491031612328,1985000.0
404,223.9774,-4.915295312654841,1990000.0
405,224.6261,-4.915114458428302,1995000.0
406,225.1272,-4.914995045089684,2000000.0
407,225.3831,-4.914909325141215,2005000.0
408,226.6884,-4.914569418293529,2010000.0
409,227.3396,-4.914438608661183,2015000.0
410,227.1535,-4.914395996432464,2020000.0
411,227.9299,-4.91410861163413,2025000.0
412,229.518,-4.913903478347042,2030000.0
413,229.4285,-4.913769695768506,2035000.0
414,229.6827,-4.913734515905262,2040000.0
415,229.7617,-4.91362947180656,2045000.0
416,231.0873,-4.91339262709345,2050000.0
417,231.9835,-4.913273709245863,2055000.0
418,232.073,-4.913224655633733,2060000.0
419,232.9173,-4.9129754236448315,2065000.0
420,233.305,-4.912861956198593,2070000.0
421,234.3125,-4.912654840947379,2075000.0
422,234.5314,-4.912486869487662,2080000.0
423,234.9086,-4.912435833911406,2085000.0
424,236.8559,-4.912017639480726,2090000.0
425,236.9769,-4.9120488554157165,2095000.0
426,238.0976,-4.911833812307997,2100000.0
427,237.9357,-4.911824893469428,2105000.0
428,239.5351,-4.911379447032009,2110000.0
429,238.8175,-4.91145971657913,2115000.0
430,240.7536,-4.911093053215737,2120000.0
431,240.1379,-4.911239223070063,2125000.0
432,240.8089,-4.910969180457834,2130000.0
433,241.7356,-4.910853235556437,2135000.0
434,242.3408,-4.910658012089981,2140000.0
435,242.69,-4.910673372311961,2145000.0
436,243.4736,-4.910376573184025,2150000.0
437,244.8584,-4.9101907640471705,2155000.0
438,244.7539,-4.910119413338619,2160000.0
439,245.5196,-4.909927162818353,2165000.0
440,246.2527,-4.909730948369835,2170000.0
441,246.5201,-4.909724506986423,2175000.0
442,248.1532,-4.909291447824794,2180000.0
443,248.0938,-4.909306312555742,2185000.0
444,248.6635,-4.909021405212566,2190000.0
445,249.5893,-4.908955504905362,2195000.0
446,249.8482,-4.908928748389654,2200000.0
447,250.4607,-4.908733524923199,2205000.0
448,251.1572,-4.908587355068873,2210000.0
449,252.0434,-4.908394113566544,2215000.0
450,252.6786,-4.908267763353483,2220000.0
451,253.0906,-4.908071548904965,2225000.0
452,254.4587,-4.907837181647012,2230000.0
453,253.5643,-4.907796055891389,2235000.0
454,254.8191,-4.907733624021406,2240000.0
455,255.444,-4.907539887028045,2245000.0
456,256.741,-4.907306510752155,2250000.0
457,256.9335,-4.907094440590625,2255000.0
458,257.4921,-4.907018134971757,2260000.0
459,258.1241,-4.90687791100981,2265000.0
460,258.3937,-4.906724804281042,2270000.0
461,259.4525,-4.906486473094837,2275000.0
462,260.699,-4.906196610841343,2280000.0
463,261.2064,-4.906116836785254,2285000.0
464,261.2806,-4.906108413437717,2290000.0
465,261.4408,-4.905927063720147,2295000.0
466,262.7241,-4.905719452977901,2300000.0
467,262.772,-4.905716480031711,2305000.0
468,263.7382,-4.9054003567535425,2310000.0
469,263.9274,-4.90543652759885,2315000.0
470,264.3363,-4.9052368447131105,2320000.0
471,265.1267,-4.904963333663661,2325000.0
472,265.5538,-4.904884055098602,2330000.0
473,266.7934,-4.904763650777921,2335000.0
474,266.8011,-4.904677930829452,2340000.0
475,268.5768,-4.904337528490735,2345000.0
476,268.5584,-4.904147259934595,2350000.0
477,269.5051,-4.904024378158755,2355000.0
478,270.2811,-4.90381379447032,2360000.0
479,270.3625,-4.903822713308889,2365000.0
480,271.0185,-4.903695372113765,2370000.0
481,271.2577,-4.9035313645823,2375000.0
482,271.9587,-4.903329204241404,2380000.0
483,272.5502,-4.903196908135962,2385000.0
484,274.7964,-4.903001189178475,2390000.0
485,274.0176,-4.902773758794966,2395000.0
486,274.4134,-4.902756912099891,2400000.0
487,275.7699,-4.9025785353285105,2405000.0
488,276.2358,-4.9023045287880285,2410000.0
489,276.7861,-4.902344168070558,2415000.0
490,278.0108,-4.9019740362699435,2420000.0
491,277.8166,-4.901884847884253,2425000.0
492,278.3772,-4.901621246655435,2430000.0
493,279.9713,-4.901544941036567,2435000.0
494,280.1009,-4.901465166980477,2440000.0
535,280.1263,-4.901731245664454,2640000.0
536,280.1263,-4.901731245664454,2640000.0
537,280.417,-4.901669309285502,2645000.0
538,280.969,-4.9015642651868,2650000.0
539,281.9027,-4.901383410960261,2655000.0
540,282.7725,-4.901072738083441,2660000.0
541,283.2563,-4.901087602814389,2665000.0
542,283.6981,-4.900815578238034,2670000.0
543,284.354,-4.900769002081062,2675000.0
544,284.5905,-4.900665444455456,2680000.0
545,284.9623,-4.900608958477852,2685000.0
546,286.6337,-4.900133287087503,2690000.0
547,287.1726,-4.900128827668219,2695000.0
548,287.1256,-4.900022297096423,2700000.0
549,287.7692,-4.899862748984243,2705000.0
550,289.6091,-4.89939153701318,2710000.0
551,289.6273,-4.899398473887622,2715000.0
552,289.9697,-4.899299871172332,2720000.0
553,291.1729,-4.89927162818353,2725000.0
554,290.5304,-4.899035774452482,2730000.0
555,292.0848,-4.898759785947874,2735000.0
556,292.0783,-4.898599742344664,2740000.0
557,292.7845,-4.898464473293033,2745000.0
558,293.5312,-4.898378753344565,2750000.0
559,294.13,-4.898155286889307,2755000.0
560,294.1572,-4.89816222376375,2760000.0
561,296.4173,-4.89767664255277,2765000.0
562,296.4843,-4.897609751263502,2770000.0
563,295.5808,-4.897730155584184,2775000.0
564,296.8754,-4.897604300862154,2780000.0
565,297.7541,-4.897213853929244,2785000.0
566,298.4585,-4.897097909027847,2790000.0
567,299.8428,-4.89672381329898,2795000.0
568,299.7103,-4.896779803785551,2800000.0
569,300.5894,-4.896544445545535,2805000.0
570,300.9252,-4.896430978099296,2810000.0
571,303.3703,-4.8960667921910614,2815000.0
572,302.6665,-4.896108413437717,2820000.0
573,303.4886,-4.89592210880983,2825000.0
574,303.9606,-4.895741254583292,2830000.0
575,303.839,-4.895701119809732,2835000.0
576,305.17,-4.895413239520365,2840000.0
577,305.3593,-4.895294817163809,2845000.0
578,305.7422,-4.89532553760777,2850000.0
579,306.9701,-4.8949643246457235,2855000.0
580,307.5433,-4.894798830641165,2860000.0
581,307.5257,-4.894825587156872,2865000.0
582,308.8588,-4.894575364185908,2870000.0
583,309.2232,-4.894379149737389,2875000.0
584,309.0047,-4.894305321573679,2880000.0
585,309.9389,-4.893987216331384,2885000.0
586,312.1853,-4.893716678228124,2890000.0
587,312.3046,-4.893678029927658,2895000.0
588,313.1705,-4.893335150133782,2900000.0
589,312.4014,-4.893505599048657,2905000.0
590,313.3746,-4.89326379942523,2910000.0
591,314.5612,-4.893086413635913,2915000.0
592,314.46,-4.893040828461005,2920000.0
593,314.1985,-4.893061143593301,2925000.0
594,316.6379,-4.892447725696165,2930000.0
595,316.7783,-4.892422455653552,2935000.0
596,317.2542,-4.8923719155683285,2940000.0
597,318.3814,-4.892034486175801,2945000.0
598,317.827,-4.892244574373204,2950000.0
599,318.3734,-4.892059756218412,2955000.0
600,319.8738,-4.891810524229511,2960000.0
601,321.1142,-4.8915930036666335,2965000.0
602,321.2683,-4.89145971657913,2970000.0
603,321.1383,-4.891444851848181,2975000.0
604,322.8641,-4.891021207016153,2980000.0
605,322.2859,-4.891019225052027,2985000.0
606,323.4603,-4.8907694975720934,2990000.0
607,323.3355,-4.890634228520464,2995000.0
608,325.3948,-4.890403825190765,3000000.0
609,325.6545,-4.890478644336538,3005000.0
610,325.6864,-4.890109008026955,3010000.0
611,327.9724,-4.889836487959569,3015000.0
612,328.316,-4.889759686849668,3020000.0
613,327.6412,-4.8897775245268065,3025000.0
614,328.6411,-4.889442077098404,3030000.0
615,328.9001,-4.88934545634724,3035000.0
616,329.7424,-4.889296402735111,3040000.0
617,331.1535,-4.889104647705876,3045000.0
618,331.319,-4.888979288474879,3050000.0
619,331.0437,-4.888963432761867,3055000.0
620,333.48,-4.888460509364781,3060000.0
621,332.5745,-4.888596273907442,3065000.0
622,333.6006,-4.8882251511247645,3070000.0
623,333.8707,-4.888097314438609,3075000.0
624,335.1439,-4.88790407293628,3080000.0
625,335.0217,-4.887838172629076,3085000.0
626,336.6548,-4.88745862649886,3090000.0
627,337.135,-4.887466554355366,3095000.0
628,339.0491,-4.8871172331780794,3100000.0
669,338.4579,-4.887623129521356,3300000.0
670,338.4579,-4.887623129521356,3300000.0
671,337.1255,-4.887809929640274,3305000.0
672,338.3589,-4.887535427608761,3310000.0
673,339.9737,-4.887296600931523,3315000.0
674,339.7037,-4.887247547319394,3320000.0
675,340.5853,-4.8868665147160835,3325000.0
676,341.1316,-4.886900208106233,3330000.0
677,342.5183,-4.886566247150927,3335000.0
678,342.1793,-4.88668120107026,3340000.0
679,343.8155,-4.886333861857101,3345000.0
680,342.7528,-4.886339312258448,3350000.0
681,344.5524,-4.886042017639481,3355000.0
682,344.6063,-4.886064314735903,3360000.0
